# Coherent scattering form factor
# (Excerpt from EPICS2017 / EPDL)
#
# Momentum  Form-factor
#  (MeV)
#
0.00000E+00 7.40000E+01
2.47969E-05 7.40000E+01
4.95937E-05 7.39828E+01
9.91875E-05 7.39655E+01
1.23984E-04 7.39600E+01
2.16973E-04 7.39269E+01
2.47969E-04 7.39190E+01
3.40957E-04 7.38897E+01
3.71953E-04 7.38730E+01
4.64941E-04 7.38026E+01
4.95937E-04 7.37750E+01
6.19922E-04 7.36510E+01
6.27361E-04 7.36412E+01
7.43906E-04 7.35020E+01
8.67890E-04 7.33257E+01
9.91875E-04 7.31320E+01
1.11586E-03 7.29254E+01
1.23984E-03 7.26970E+01
1.36383E-03 7.24429E+01
1.45682E-03 7.22382E+01
1.59630E-03 7.19133E+01
1.61180E-03 7.18738E+01
1.73578E-03 7.15720E+01
1.85976E-03 7.12527E+01
2.04574E-03 7.07690E+01
2.23172E-03 7.02800E+01
2.47969E-03 6.96050E+01
2.78965E-03 6.87174E+01
2.94463E-03 6.82641E+01
3.09961E-03 6.78050E+01
3.71953E-03 6.59530E+01
4.33945E-03 6.41490E+01
4.95937E-03 6.23210E+01
5.40435E-03 6.09520E+01
5.88926E-03 5.96130E+01
6.19922E-03 5.87330E+01
6.64792E-03 5.74131E+01
7.12910E-03 5.61228E+01
7.43906E-03 5.52750E+01
7.96304E-03 5.37994E+01
8.52392E-03 5.23631E+01
8.67890E-03 5.19618E+01
9.45381E-03 5.00000E+01
9.91875E-03 4.88760E+01
1.05204E-02 4.74360E+01
1.11586E-02 4.60385E+01
1.17622E-02 4.47121E+01
1.23984E-02 4.34240E+01
1.30036E-02 4.21954E+01
1.36383E-02 4.10016E+01
1.42447E-02 3.98548E+01
1.48781E-02 3.87400E+01
1.61180E-02 3.66169E+01
1.67379E-02 3.56009E+01
1.73578E-02 3.46210E+01
1.82640E-02 3.32055E+01
1.92176E-02 3.18479E+01
1.98375E-02 3.09860E+01
2.07465E-02 2.97501E+01
2.16973E-02 2.85634E+01
2.23172E-02 2.78140E+01
2.35244E-02 2.64132E+01
2.47969E-02 2.50830E+01
2.62195E-02 2.37006E+01
2.73398E-02 2.27140E+01
2.82113E-02 2.20012E+01
2.95709E-02 2.09736E+01
3.09961E-02 1.99940E+01
3.25090E-02 1.91106E+01
3.40957E-02 1.82663E+01
3.56118E-02 1.75865E+01
3.71953E-02 1.69320E+01
3.98158E-02 1.60375E+01
4.26209E-02 1.51902E+01
4.49443E-02 1.45526E+01
4.72703E-02 1.39300E+01
4.80439E-02 1.37250E+01
4.95937E-02 1.33150E+01
5.26021E-02 1.24980E+01
5.57929E-02 1.17312E+01
5.88109E-02 1.10790E+01
6.19922E-02 1.04630E+01
6.46481E-02 1.00234E+01
6.74177E-02 9.60219E+00
6.98131E-02 9.22237E+00
7.12910E-02 8.97492E+00
7.14472E-02 8.94822E+00
7.34086E-02 8.59738E+00
7.43906E-02 8.41280E+00
7.59404E-02 8.10907E+00
7.75813E-02 7.78114E+00
8.01094E-02 7.31394E+00
8.27199E-02 6.87479E+00
8.47557E-02 6.59114E+00
8.67890E-02 6.36210E+00
8.83388E-02 6.22585E+00
9.10516E-02 6.04796E+00
9.50325E-02 5.84166E+00
9.91875E-02 5.64240E+00
1.02287E-01 5.46445E+00
1.05000E-01 5.29381E+00
1.09454E-01 4.99711E+00
1.12919E-01 4.78555E+00
1.18322E-01 4.48488E+00
1.23984E-01 4.20310E+00
1.30184E-01 3.97359E+00
1.35872E-01 3.79484E+00
1.41808E-01 3.62414E+00
1.46458E-01 3.48646E+00
1.48781E-01 3.41500E+00
1.54980E-01 3.21700E+00
1.60688E-01 3.04024E+00
1.66605E-01 2.87320E+00
1.73578E-01 2.71000E+00
1.79777E-01 2.59686E+00
1.85499E-01 2.50283E+00
1.91402E-01 2.41220E+00
1.96051E-01 2.33458E+00
1.98375E-01 2.29330E+00
2.01475E-01 2.23505E+00
2.07287E-01 2.12009E+00
2.12373E-01 2.01791E+00
2.17729E-01 1.91144E+00
2.21834E-01 1.83528E+00
2.28138E-01 1.72670E+00
2.34621E-01 1.62455E+00
2.41293E-01 1.53477E+00
2.47969E-01 1.45980E+00
2.51837E-01 1.42317E+00
2.59350E-01 1.36413E+00
2.66393E-01 1.32029E+00
2.76088E-01 1.27377E+00
2.84966E-01 1.24167E+00
2.95851E-01 1.21189E+00
3.09787E-01 1.18369E+00
3.40957E-01 1.13593E+00
3.45321E-01 1.12921E+00
3.58637E-01 1.10699E+00
3.71953E-01 1.08120E+00
3.87451E-01 1.04557E+00
4.01015E-01 1.01107E+00
4.12868E-01 9.79226E-01
4.33648E-01 9.21893E-01
4.49220E-01 8.78926E-01
4.60751E-01 8.47119E-01
4.72579E-01 8.16464E-01
4.84117E-01 7.86570E-01
4.95937E-01 7.57770E-01
5.12906E-01 7.17456E-01
5.30455E-01 6.79286E-01
5.46744E-01 6.45136E-01
5.63534E-01 6.12702E-01
5.84279E-01 5.74358E-01
6.05787E-01 5.38414E-01
6.25286E-01 5.07447E-01
6.45413E-01 4.78261E-01
6.58773E-01 4.59469E-01
6.79334E-01 4.32655E-01
7.00536E-01 4.07407E-01
7.17200E-01 3.88413E-01
7.34260E-01 3.70305E-01
7.49570E-01 3.54557E-01
7.73136E-01 3.32181E-01
7.97442E-01 3.11218E-01
8.24628E-01 2.89200E-01
8.52739E-01 2.68740E-01
8.67890E-01 2.58368E-01
8.94691E-01 2.41073E-01
9.22319E-01 2.24936E-01
9.50973E-01 2.09365E-01
9.80518E-01 1.94872E-01
9.96341E-01 1.87501E-01
1.02056E+00 1.76964E-01
1.04536E+00 1.67019E-01
1.06231E+00 1.60498E-01
1.08825E+00 1.51191E-01
1.11482E+00 1.42424E-01
1.13509E+00 1.36040E-01
1.16620E+00 1.26997E-01
1.19816E+00 1.18555E-01
1.21882E+00 1.13411E-01
1.23984E+00 1.08490E-01
1.26246E+00 1.03420E-01
1.29717E+00 9.62549E-02
1.33283E+00 8.95866E-02
1.35272E+00 8.60705E-02
1.38311E+00 8.10535E-02
1.41419E+00 7.63289E-02
1.44852E+00 7.14406E-02
1.47481E+00 6.79810E-02
1.51514E+00 6.31031E-02
1.55657E+00 5.85752E-02
1.58180E+00 5.59775E-02
1.60420E+00 5.37991E-02
1.64417E+00 5.01890E-02
1.67481E+00 4.76413E-02
1.69816E+00 4.58158E-02
1.73379E+00 4.32078E-02
1.77017E+00 4.07483E-02
1.79556E+00 3.91181E-02
1.84086E+00 3.64207E-02
1.87559E+00 3.45204E-02
1.90206E+00 3.31605E-02
1.94248E+00 3.12205E-02
1.98375E+00 2.93940E-02
2.01161E+00 2.82322E-02
2.06491E+00 2.61761E-02
2.11270E+00 2.45002E-02
2.15542E+00 2.31221E-02
2.19351E+00 2.19800E-02
2.22740E+00 2.10270E-02
2.25747E+00 2.02271E-02
2.31109E+00 1.88998E-02
2.35213E+00 1.79618E-02
2.41507E+00 1.66414E-02
2.47969E+00 1.54180E-02
2.51704E+00 1.47662E-02
2.55258E+00 1.41802E-02
2.62056E+00 1.31433E-02
2.68153E+00 1.22985E-02
2.73605E+00 1.16039E-02
2.78465E+00 1.10284E-02
2.82789E+00 1.05484E-02
2.86627E+00 1.01455E-02
2.93470E+00 9.47704E-03
2.98709E+00 9.00479E-03
3.06744E+00 8.34018E-03
3.14995E+00 7.72462E-03
3.22415E+00 7.22464E-03
3.29529E+00 6.78533E-03
3.36342E+00 6.39778E-03
3.42857E+00 6.05457E-03
3.49079E+00 5.74955E-03
3.55015E+00 5.47757E-03
3.60671E+00 5.23429E-03
3.66056E+00 5.01603E-03
3.71177E+00 4.81969E-03
3.80973E+00 4.47202E-03
3.89757E+00 4.18845E-03
3.97608E+00 3.95511E-03
4.04608E+00 3.76163E-03
4.10833E+00 3.60012E-03
4.21960E+00 3.33397E-03
4.30502E+00 3.14736E-03
4.37022E+00 3.01428E-03
4.46987E+00 2.82515E-03
4.57180E+00 2.64788E-03
4.65451E+00 2.51557E-03
4.73341E+00 2.39755E-03
4.80860E+00 2.29193E-03
4.88017E+00 2.19715E-03
4.94823E+00 2.11185E-03
5.07842E+00 1.96074E-03
5.19514E+00 1.83742E-03
5.29947E+00 1.73589E-03
5.39247E+00 1.65167E-03
5.47519E+00 1.58133E-03
5.62301E+00 1.46537E-03
5.73649E+00 1.38401E-03
5.82310E+00 1.32598E-03
5.95547E+00 1.24345E-03
6.09085E+00 1.16606E-03
6.21579E+00 1.10063E-03
6.33525E+00 1.04262E-03
6.44933E+00 9.91017E-04
6.55814E+00 9.44963E-04
6.66182E+00 9.03732E-04
6.76050E+00 8.66714E-04
6.85435E+00 8.33388E-04
7.03383E+00 7.74316E-04
7.19474E+00 7.26074E-04
7.33854E+00 6.86333E-04
7.46673E+00 6.53349E-04
7.58072E+00 6.25791E-04
7.78442E+00 5.80332E-04
7.94078E+00 5.48418E-04
8.06011E+00 5.25639E-04
8.24247E+00 4.93233E-04
8.42895E+00 4.62825E-04
8.64002E+00 4.31561E-04
8.84270E+00 4.04172E-04
9.03703E+00 3.80075E-04
9.22309E+00 3.58791E-04
9.40100E+00 3.39921E-04
9.57090E+00 3.23132E-04
9.73298E+00 3.08147E-04
9.88741E+00 2.94730E-04
1.00344E+01 2.82683E-04
1.01742E+01 2.71836E-04
1.04416E+01 2.52608E-04
1.06814E+01 2.36902E-04
1.08956E+01 2.23963E-04
1.10867E+01 2.13222E-04
1.12566E+01 2.04247E-04
1.15601E+01 1.89440E-04
1.17932E+01 1.79044E-04
1.19711E+01 1.71623E-04
1.22429E+01 1.61064E-04
1.25209E+01 1.51155E-04
1.28370E+01 1.40930E-04
1.31406E+01 1.31974E-04
1.34318E+01 1.24095E-04
1.37106E+01 1.17136E-04
1.39772E+01 1.10966E-04
1.42318E+01 1.05478E-04
1.44748E+01 1.00580E-04
1.47063E+01 9.61943E-05
1.49268E+01 9.22568E-05
1.51364E+01 8.87119E-05
1.55375E+01 8.24281E-05
1.58972E+01 7.72961E-05
1.62187E+01 7.30683E-05
1.65053E+01 6.95592E-05
1.67603E+01 6.66272E-05
1.72160E+01 6.17905E-05
1.75659E+01 5.83948E-05
1.78330E+01 5.59710E-05
1.82413E+01 5.25228E-05
1.86589E+01 4.92869E-05
1.89935E+01 4.68992E-05
1.93127E+01 4.47660E-05
1.96167E+01 4.28542E-05
1.99062E+01 4.11362E-05
2.04604E+01 3.80984E-05
2.09580E+01 3.56249E-05
2.14033E+01 3.35927E-05
2.18007E+01 3.19098E-05
2.21544E+01 3.05066E-05
2.24687E+01 2.93295E-05
2.30294E+01 2.73778E-05
2.34591E+01 2.59998E-05
2.37866E+01 2.50119E-05
2.42865E+01 2.36001E-05
2.47969E+01 2.22680E-05
2.52579E+01 2.11562E-05
2.56979E+01 2.01643E-05
2.61174E+01 1.92768E-05
2.65169E+01 1.84802E-05
2.68969E+01 1.77633E-05
2.76243E+01 1.64932E-05
2.82768E+01 1.54566E-05
2.88604E+01 1.46032E-05
2.93810E+01 1.38952E-05
2.98441E+01 1.33039E-05
3.06723E+01 1.23291E-05
3.13085E+01 1.16451E-05
3.17942E+01 1.11571E-05
3.25371E+01 1.04633E-05
3.32972E+01 9.81255E-06
3.38178E+01 9.40075E-06
3.43299E+01 9.01830E-06
3.48333E+01 8.66265E-06
3.53281E+01 8.33149E-06
3.63068E+01 7.72547E-06
3.72489E+01 7.19743E-06
3.81544E+01 6.73521E-06
3.90232E+01 6.32888E-06
3.98557E+01 5.97023E-06
4.06523E+01 5.65248E-06
4.14135E+01 5.36996E-06
4.21401E+01 5.11795E-06
4.28329E+01 4.89243E-06
4.34927E+01 4.69004E-06
4.41205E+01 4.50791E-06
4.53222E+01 4.18527E-06
4.64005E+01 3.92196E-06
4.73650E+01 3.70518E-06
4.82254E+01 3.52536E-06
4.89910E+01 3.37519E-06
5.03602E+01 3.12761E-06
5.14122E+01 2.95392E-06
5.22156E+01 2.83002E-06
5.34443E+01 2.65383E-06
5.47019E+01 2.48862E-06
5.58135E+01 2.35509E-06
5.69118E+01 2.23258E-06
5.79965E+01 2.11997E-06
5.90669E+01 2.01630E-06
6.01228E+01 1.92070E-06
6.11636E+01 1.83242E-06
6.21892E+01 1.75077E-06
6.31990E+01 1.67514E-06
6.41929E+01 1.60499E-06
6.51707E+01 1.53984E-06
6.61321E+01 1.47925E-06
6.70770E+01 1.42282E-06
6.89463E+01 1.31955E-06
7.07461E+01 1.22954E-06
7.24761E+01 1.15075E-06
7.41363E+01 1.08148E-06
7.57273E+01 1.02032E-06
7.72498E+01 9.66135E-07
7.87050E+01 9.17951E-07
8.00941E+01 8.74963E-07
8.14186E+01 8.36492E-07
8.26803E+01 8.01963E-07
8.38808E+01 7.70888E-07
8.61790E+01 7.15831E-07
8.82415E+01 6.70891E-07
9.00867E+01 6.33890E-07
9.17328E+01 6.03191E-07
9.31978E+01 5.77552E-07
9.58182E+01 5.35278E-07
9.78316E+01 5.05616E-07
9.93695E+01 4.84453E-07
