# Coherent scattering form factor
# (Excerpt from EPICS2017 / EPDL)
#
# Momentum  Form-factor
#  (MeV)
#
0.00000E+00 9.00000E+00
2.47969E-05 9.00000E+00
4.95937E-05 8.99897E+00
9.91875E-05 8.99793E+00
1.23984E-04 8.99760E+00
1.54980E-04 8.99576E+00
1.78227E-04 8.99462E+00
1.95662E-04 8.99385E+00
2.08740E-04 8.99332E+00
2.28354E-04 8.99258E+00
2.47969E-04 8.99190E+00
2.63467E-04 8.99073E+00
2.90594E-04 8.98883E+00
3.71953E-04 8.98310E+00
4.64941E-04 8.97355E+00
4.95937E-04 8.96990E+00
6.19922E-04 8.95310E+00
6.27361E-04 8.95176E+00
7.43906E-04 8.93260E+00
9.91875E-04 8.88080E+00
1.23984E-03 8.81500E+00
1.48781E-03 8.73548E+00
1.61180E-03 8.69116E+00
1.73578E-03 8.64410E+00
1.98375E-03 8.54008E+00
2.10773E-03 8.48362E+00
2.23172E-03 8.42550E+00
2.47969E-03 8.30110E+00
2.78965E-03 8.13194E+00
3.09961E-03 7.95010E+00
3.40957E-03 7.75757E+00
3.71953E-03 7.55790E+00
4.02949E-03 7.35010E+00
4.18447E-03 7.24485E+00
4.33945E-03 7.13840E+00
4.80439E-03 6.81365E+00
4.95937E-03 6.70560E+00
5.26933E-03 6.48800E+00
5.73428E-03 6.16472E+00
6.19922E-03 5.84750E+00
6.46481E-03 5.66493E+00
6.74177E-03 5.48806E+00
7.20671E-03 5.19254E+00
7.43906E-03 5.04990E+00
7.74282E-03 4.86410E+00
8.05898E-03 4.68514E+00
8.52392E-03 4.42948E+00
8.86583E-03 4.24854E+00
9.22146E-03 4.07500E+00
9.56375E-03 3.91173E+00
9.91875E-03 3.75500E+00
1.02240E-02 3.62392E+00
1.05387E-02 3.49741E+00
1.08442E-02 3.37921E+00
1.11586E-02 3.26501E+00
1.14686E-02 3.15811E+00
1.19244E-02 3.01066E+00
1.23984E-02 2.87010E+00
1.30036E-02 2.70822E+00
1.36383E-02 2.55547E+00
1.42582E-02 2.42340E+00
1.48781E-02 2.30620E+00
1.54856E-02 2.20584E+00
1.61180E-02 2.10984E+00
1.67379E-02 2.02776E+00
1.73578E-02 1.95460E+00
1.79670E-02 1.89200E+00
1.85976E-02 1.83141E+00
1.98375E-02 1.73260E+00
2.10773E-02 1.65238E+00
2.23172E-02 1.58600E+00
2.35244E-02 1.53260E+00
2.47969E-02 1.48100E+00
2.70218E-02 1.40427E+00
2.94463E-02 1.33152E+00
3.09961E-02 1.28720E+00
3.23240E-02 1.24892E+00
3.37089E-02 1.21177E+00
3.60323E-02 1.14943E+00
3.71953E-02 1.11920E+00
3.86211E-02 1.08161E+00
4.01015E-02 1.04529E+00
4.24746E-02 9.85851E-01
4.42550E-02 9.41261E-01
4.61618E-02 8.93561E-01
4.64941E-02 8.85313E-01
4.84506E-02 8.36450E-01
4.95937E-02 8.08000E-01
5.11435E-02 7.69787E-01
5.27601E-02 7.30627E-01
5.40060E-02 7.02570E-01
5.59302E-02 6.62492E-01
5.79230E-02 6.24700E-01
5.88926E-02 6.08016E-01
6.06358E-02 5.80842E-01
6.19922E-02 5.62100E-01
6.46481E-02 5.30440E-01
6.74177E-02 5.00563E-01
6.98131E-02 4.73794E-01
7.14472E-02 4.54200E-01
7.29201E-02 4.35381E-01
7.43906E-02 4.15400E-01
7.59404E-02 3.93220E-01
7.72968E-02 3.73648E-01
7.85982E-02 3.55265E-01
8.05916E-02 3.29373E-01
8.26356E-02 3.05368E-01
8.41184E-02 2.90416E-01
8.58988E-02 2.75187E-01
8.67890E-02 2.68700E-01
8.83388E-02 2.59144E-01
8.96952E-02 2.52121E-01
9.26135E-02 2.39502E-01
9.56266E-02 2.27514E-01
9.74071E-02 2.20046E-01
9.91875E-02 2.11900E-01
1.00737E-01 2.04110E-01
1.02872E-01 1.92674E-01
1.04829E-01 1.81868E-01
1.07224E-01 1.68660E-01
1.08749E-01 1.60327E-01
1.10296E-01 1.52406E-01
1.11499E-01 1.46270E-01
1.13326E-01 1.37527E-01
1.15184E-01 1.29306E-01
1.16623E-01 1.23348E-01
1.18817E-01 1.14922E-01
1.21051E-01 1.07072E-01
1.22509E-01 1.02540E-01
1.23984E-01 9.82000E-02
1.26842E-01 9.12738E-02
1.29397E-01 8.56153E-02
1.31675E-01 8.09526E-02
1.33701E-01 7.70815E-02
1.35499E-01 7.38465E-02
1.38704E-01 6.85085E-02
1.41157E-01 6.47597E-02
1.43026E-01 6.20834E-02
1.45875E-01 5.82749E-02
1.48781E-01 5.47000E-02
1.50457E-01 5.25258E-02
1.53436E-01 4.89268E-02
1.55708E-01 4.63903E-02
1.57434E-01 4.45747E-02
1.60060E-01 4.19835E-02
1.62729E-01 3.95430E-02
1.64656E-01 3.80120E-02
1.66605E-01 3.65403E-02
1.70092E-01 3.43074E-02
1.72705E-01 3.29132E-02
1.73578E-01 3.25000E-02
1.76678E-01 3.12217E-02
1.79390E-01 3.02860E-02
1.84652E-01 2.87318E-02
1.90068E-01 2.72573E-02
1.93036E-01 2.64074E-02
1.96595E-01 2.52988E-02
1.98375E-01 2.47000E-02
2.01475E-01 2.35803E-02
2.04381E-01 2.24700E-02
2.08380E-01 2.08969E-02
2.12053E-01 1.94521E-02
2.14286E-01 1.85730E-02
2.16544E-01 1.77336E-02
2.18499E-01 1.70042E-02
2.20471E-01 1.63048E-02
2.23734E-01 1.51585E-02
2.26629E-01 1.42218E-02
2.29193E-01 1.34498E-02
2.31460E-01 1.28087E-02
2.33462E-01 1.22729E-02
2.37007E-01 1.13886E-02
2.39701E-01 1.07675E-02
2.41742E-01 1.03239E-02
2.44835E-01 9.69267E-03
2.47969E-01 9.10000E-03
2.51837E-01 8.46239E-03
2.55566E-01 7.92247E-03
2.59350E-01 7.41700E-03
2.62848E-01 7.00664E-03
2.66393E-01 6.61898E-03
2.69671E-01 6.29860E-03
2.72989E-01 5.99373E-03
2.77489E-01 5.62620E-03
2.82064E-01 5.28121E-03
2.86200E-01 5.00463E-03
2.90396E-01 4.74254E-03
2.95851E-01 4.43602E-03
3.00115E-01 4.22591E-03
3.04167E-01 4.03798E-03
3.08016E-01 3.86939E-03
3.11668E-01 3.71774E-03
3.18634E-01 3.44923E-03
3.24857E-01 3.23024E-03
3.30401E-01 3.05005E-03
3.35330E-01 2.90066E-03
3.39703E-01 2.77596E-03
3.47493E-01 2.57048E-03
3.53453E-01 2.42642E-03
3.57990E-01 2.32370E-03
3.64905E-01 2.17772E-03
3.71953E-01 2.04090E-03
3.79623E-01 1.89607E-03
3.87451E-01 1.76152E-03
3.94175E-01 1.65212E-03
4.01015E-01 1.54951E-03
4.06820E-01 1.46618E-03
4.11229E-01 1.40663E-03
4.17933E-01 1.32182E-03
4.24746E-01 1.24212E-03
4.29128E-01 1.19285E-03
4.35787E-01 1.12257E-03
4.42550E-01 1.05644E-03
4.48895E-01 9.97785E-04
4.54522E-01 9.49139E-04
4.59504E-01 9.08523E-04
4.68353E-01 8.41584E-04
4.75102E-01 7.94636E-04
4.80227E-01 7.61152E-04
4.88019E-01 7.13553E-04
4.95937E-01 6.68930E-04
5.01524E-01 6.39580E-04
5.11452E-01 5.91283E-04
5.19027E-01 5.57469E-04
5.24782E-01 5.33383E-04
5.33534E-01 4.99192E-04
5.42431E-01 4.67193E-04
5.52632E-01 4.33916E-04
5.61715E-01 4.06750E-04
5.69786E-01 3.84378E-04
5.76942E-01 3.65814E-04
5.83277E-01 3.50308E-04
5.94532E-01 3.24736E-04
6.03116E-01 3.06790E-04
6.09635E-01 2.93985E-04
6.19545E-01 2.75772E-04
6.29617E-01 2.58687E-04
6.38682E-01 2.44549E-04
6.46720E-01 2.32813E-04
6.53836E-01 2.23008E-04
6.66479E-01 2.06831E-04
6.76121E-01 1.95473E-04
6.83444E-01 1.87366E-04
6.94577E-01 1.75831E-04
7.05892E-01 1.65007E-04
7.18428E-01 1.54069E-04
7.30784E-01 1.44165E-04
7.42956E-01 1.35178E-04
7.54942E-01 1.27006E-04
7.66737E-01 1.19561E-04
7.78339E-01 1.12765E-04
7.89746E-01 1.06550E-04
8.00956E-01 1.00856E-04
8.11967E-01 9.56309E-05
8.22779E-01 9.08269E-05
8.33390E-01 8.64033E-05
8.43800E-01 8.23235E-05
8.54009E-01 7.85550E-05
8.64016E-01 7.50688E-05
8.73822E-01 7.18392E-05
8.83429E-01 6.88431E-05
8.92835E-01 6.60598E-05
9.02043E-01 6.34708E-05
9.20155E-01 5.87399E-05
9.37465E-01 5.46255E-05
9.53989E-01 5.10303E-05
9.69745E-01 4.78750E-05
9.84752E-01 4.50944E-05
9.99032E-01 4.26344E-05
1.01261E+00 4.04501E-05
1.02550E+00 3.85041E-05
1.03774E+00 3.67649E-05
1.04934E+00 3.52058E-05
1.06034E+00 3.38042E-05
1.08128E+00 3.13249E-05
1.09993E+00 2.93051E-05
1.11652E+00 2.76450E-05
1.13124E+00 2.62696E-05
1.14427E+00 2.51225E-05
1.16745E+00 2.32342E-05
1.18514E+00 2.19117E-05
1.19859E+00 2.09695E-05
1.21904E+00 1.96316E-05
1.23984E+00 1.83790E-05
1.25819E+00 1.73523E-05
1.27622E+00 1.64123E-05
1.29393E+00 1.55504E-05
1.31133E+00 1.47585E-05
1.32840E+00 1.40299E-05
1.34515E+00 1.33583E-05
1.36158E+00 1.27385E-05
1.37769E+00 1.21654E-05
1.39347E+00 1.16348E-05
1.40894E+00 1.11429E-05
1.42408E+00 1.06862E-05
1.43891E+00 1.02617E-05
1.46808E+00 9.48649E-06
1.49596E+00 8.81302E-06
1.52258E+00 8.22513E-06
1.54797E+00 7.70965E-06
1.57216E+00 7.25576E-06
1.59517E+00 6.85455E-06
1.61706E+00 6.49858E-06
1.63785E+00 6.18166E-06
1.65758E+00 5.89861E-06
1.67629E+00 5.64503E-06
1.69403E+00 5.41720E-06
1.72779E+00 5.01453E-06
1.75789E+00 4.68681E-06
1.78465E+00 4.41768E-06
1.80840E+00 4.19490E-06
1.82944E+00 4.00920E-06
1.86686E+00 3.70379E-06
1.89542E+00 3.49010E-06
1.91712E+00 3.33797E-06
1.95015E+00 3.12210E-06
1.98375E+00 2.92020E-06
2.01161E+00 2.76596E-06
2.03808E+00 2.62877E-06
2.06322E+00 2.50634E-06
2.08707E+00 2.39674E-06
2.10967E+00 2.29835E-06
2.15272E+00 2.12463E-06
2.19111E+00 1.98343E-06
2.22526E+00 1.86760E-06
2.25558E+00 1.77181E-06
2.28244E+00 1.69203E-06
2.30621E+00 1.62518E-06
2.34841E+00 1.51448E-06
2.38056E+00 1.43643E-06
2.42962E+00 1.32683E-06
2.47969E+00 1.22560E-06
2.51928E+00 1.15278E-06
2.55444E+00 1.09263E-06
2.58561E+00 1.04257E-06
2.61319E+00 1.00066E-06
2.66217E+00 9.31324E-07
2.69951E+00 8.82494E-07
2.72785E+00 8.47559E-07
2.77093E+00 7.97732E-07
2.81469E+00 7.50835E-07
2.85366E+00 7.12206E-07
2.89068E+00 6.77799E-07
2.92582E+00 6.47053E-07
2.95916E+00 6.19496E-07
2.99075E+00 5.94729E-07
3.05091E+00 5.50928E-07
3.10454E+00 5.15256E-07
3.15223E+00 4.85944E-07
3.19457E+00 4.61666E-07
3.23208E+00 4.41421E-07
3.29878E+00 4.08104E-07
3.34971E+00 3.84777E-07
3.38842E+00 3.68161E-07
3.44733E+00 3.44573E-07
3.50727E+00 3.22496E-07
3.54882E+00 3.08341E-07
3.58822E+00 2.95636E-07
3.66328E+00 2.73208E-07
3.73025E+00 2.54983E-07
3.78985E+00 2.40037E-07
3.84277E+00 2.27679E-07
3.88969E+00 2.17390E-07
3.93122E+00 2.08768E-07
4.00495E+00 1.94495E-07
4.06116E+00 1.84435E-07
4.10383E+00 1.77232E-07
4.16868E+00 1.66952E-07
4.23456E+00 1.57269E-07
4.32193E+00 1.45571E-07
4.39986E+00 1.36052E-07
4.46920E+00 1.28234E-07
4.53077E+00 1.21763E-07
4.58533E+00 1.16369E-07
4.68241E+00 1.07499E-07
4.75657E+00 1.01293E-07
4.81295E+00 9.68745E-08
4.89879E+00 9.06056E-08
4.98615E+00 8.47425E-08
5.05575E+00 8.04454E-08
5.12188E+00 7.66150E-08
5.18467E+00 7.31898E-08
5.24422E+00 7.01179E-08
5.30068E+00 6.73552E-08
5.40818E+00 6.24651E-08
5.50403E+00 5.84784E-08
5.58929E+00 5.51993E-08
5.66498E+00 5.24813E-08
5.73204E+00 5.02131E-08
5.85132E+00 4.64770E-08
5.94241E+00 4.38586E-08
6.01165E+00 4.19920E-08
6.11703E+00 3.93400E-08
6.22426E+00 3.68555E-08
6.29114E+00 3.54183E-08
6.41848E+00 3.28728E-08
6.53201E+00 3.07961E-08
6.63300E+00 2.90869E-08
6.72264E+00 2.76693E-08
6.80207E+00 2.64857E-08
6.94334E+00 2.45350E-08
7.05122E+00 2.31668E-08
7.13322E+00 2.21909E-08
7.25802E+00 2.08037E-08
7.38500E+00 1.95032E-08
7.51300E+00 1.83028E-08
7.62682E+00 1.73131E-08
7.72783E+00 1.64912E-08
7.81731E+00 1.58041E-08
7.97639E+00 1.46698E-08
8.09783E+00 1.38729E-08
8.19012E+00 1.33037E-08
8.33052E+00 1.24934E-08
8.47334E+00 1.17325E-08
8.58838E+00 1.11665E-08
8.69765E+00 1.06607E-08
8.80135E+00 1.02073E-08
8.89970E+00 9.79980E-09
9.08707E+00 9.07907E-09
9.25425E+00 8.49204E-09
9.40305E+00 8.00961E-09
9.53522E+00 7.61002E-09
9.65238E+00 7.27677E-09
9.86090E+00 6.72831E-09
1.00202E+01 6.34427E-09
1.01414E+01 6.07069E-09
1.03260E+01 5.68229E-09
1.05139E+01 5.31873E-09
1.06584E+01 5.06168E-09
1.07957E+01 4.83199E-09
1.09260E+01 4.62613E-09
1.10496E+01 4.44111E-09
1.12851E+01 4.11391E-09
1.14953E+01 3.84745E-09
1.16824E+01 3.62849E-09
1.18486E+01 3.44715E-09
1.19960E+01 3.29592E-09
1.22583E+01 3.04707E-09
1.24589E+01 2.87283E-09
1.26114E+01 2.74873E-09
1.28437E+01 2.57255E-09
1.30803E+01 2.40767E-09
1.33313E+01 2.24861E-09
1.35549E+01 2.11808E-09
1.37535E+01 2.01010E-09
1.39298E+01 1.92014E-09
1.40858E+01 1.84473E-09
1.43631E+01 1.71982E-09
1.45747E+01 1.63173E-09
1.48979E+01 1.50797E-09
1.52283E+01 1.39360E-09
1.54222E+01 1.33216E-09
1.56062E+01 1.27702E-09
1.57808E+01 1.22741E-09
1.61133E+01 1.13951E-09
1.64100E+01 1.06778E-09
1.66741E+01 1.00873E-09
1.69087E+01 9.59750E-10
1.71166E+01 9.18850E-10
1.74867E+01 8.51410E-10
1.77696E+01 8.04110E-10
1.79847E+01 7.70360E-10
1.83122E+01 7.22380E-10
1.86458E+01 6.77380E-10
1.90050E+01 6.33240E-10
1.93250E+01 5.96980E-10
1.96095E+01 5.66960E-10
1.98618E+01 5.41940E-10
2.00852E+01 5.20950E-10
2.04823E+01 4.86150E-10
2.07853E+01 4.61590E-10
2.12481E+01 4.27050E-10
2.17213E+01 3.95100E-10
2.20839E+01 3.72840E-10
2.24060E+01 3.54390E-10
2.26918E+01 3.39000E-10
2.32007E+01 3.13660E-10
2.35898E+01 2.95900E-10
2.38860E+01 2.83250E-10
2.43372E+01 2.65270E-10
2.47969E+01 2.48440E-10
2.52921E+01 2.31940E-10
2.57335E+01 2.18410E-10
2.61261E+01 2.07210E-10
2.64745E+01 1.97890E-10
2.67832E+01 1.90080E-10
2.73321E+01 1.77140E-10
2.77511E+01 1.68020E-10
2.80695E+01 1.61490E-10
2.85541E+01 1.52160E-10
2.90470E+01 1.43380E-10
2.94681E+01 1.36450E-10
2.98683E+01 1.30270E-10
3.02485E+01 1.24720E-10
3.06093E+01 1.19740E-10
3.12975E+01 1.10920E-10
3.19123E+01 1.03740E-10
3.24602E+01 9.78450E-11
3.29473E+01 9.29590E-11
3.33795E+01 8.88850E-11
3.41496E+01 8.21790E-11
3.47387E+01 7.74840E-11
3.51873E+01 7.41400E-11
3.58710E+01 6.93920E-11
3.65679E+01 6.49480E-11
3.70637E+01 6.20420E-11
3.75347E+01 5.94360E-11
3.79816E+01 5.70920E-11
3.88340E+01 5.29440E-11
3.95955E+01 4.95620E-11
4.02740E+01 4.67800E-11
4.08773E+01 4.44750E-11
4.14126E+01 4.25510E-11
4.23662E+01 3.93820E-11
4.30958E+01 3.71620E-11
4.36513E+01 3.55790E-11
4.44979E+01 3.33300E-11
4.53609E+01 3.12230E-11
4.59742E+01 2.98450E-11
4.65567E+01 2.86080E-11
4.71095E+01 2.74950E-11
4.81637E+01 2.55240E-11
4.91055E+01 2.39160E-11
4.99447E+01 2.25920E-11
5.06907E+01 2.14930E-11
5.13526E+01 2.05760E-11
5.25318E+01 1.90640E-11
5.34339E+01 1.80040E-11
5.41207E+01 1.72470E-11
5.51674E+01 1.61720E-11
5.62343E+01 1.51630E-11
5.73052E+01 1.42430E-11
5.83277E+01 1.34310E-11
5.93028E+01 1.27120E-11
6.02318E+01 1.20730E-11
6.11159E+01 1.15030E-11
6.19565E+01 1.09940E-11
6.27551E+01 1.05360E-11
6.35132E+01 1.01250E-11
6.49593E+01 9.39570E-12
6.62516E+01 8.80120E-12
6.74034E+01 8.31190E-12
6.84277E+01 7.90620E-12
6.93367E+01 7.56740E-12
7.09566E+01 7.00910E-12
7.21964E+01 6.61760E-12
7.31404E+01 6.33840E-12
7.45795E+01 5.94150E-12
7.60470E+01 5.56950E-12
7.73442E+01 5.26950E-12
7.85804E+01 5.00290E-12
7.97573E+01 4.76530E-12
8.08766E+01 4.55270E-12
8.19403E+01 4.36210E-12
8.29501E+01 4.19060E-12
8.48773E+01 3.88710E-12
8.66002E+01 3.63960E-12
8.81365E+01 3.43600E-12
8.95030E+01 3.26720E-12
9.07161E+01 3.12630E-12
9.28788E+01 2.89430E-12
9.45345E+01 2.73160E-12
9.57956E+01 2.61560E-12
9.77190E+01 2.45080E-12
9.96809E+01 2.29640E-12
