# Coherent scattering form factor
# (Excerpt from EPICS2017 / EPDL)
#
# Momentum  Form-factor
#  (MeV)
#
0.00000E+00 6.50000E+01
2.47969E-05 6.50000E+01
4.95937E-05 6.49828E+01
9.91875E-05 6.49655E+01
1.23984E-04 6.49600E+01
2.47969E-04 6.49130E+01
3.40957E-04 6.48716E+01
3.71953E-04 6.48510E+01
4.64941E-04 6.47696E+01
4.95937E-04 6.47380E+01
5.88926E-04 6.46333E+01
6.19922E-04 6.45950E+01
6.27361E-04 6.45842E+01
7.12910E-04 6.44689E+01
7.43906E-04 6.44230E+01
8.52392E-04 6.42488E+01
9.45381E-04 6.40828E+01
9.91875E-04 6.40060E+01
1.10036E-03 6.38050E+01
1.19335E-03 6.36223E+01
1.23984E-03 6.35270E+01
1.36383E-03 6.32470E+01
1.45682E-03 6.30216E+01
1.59630E-03 6.26777E+01
1.61180E-03 6.26403E+01
1.73578E-03 6.23240E+01
1.85976E-03 6.19987E+01
2.04574E-03 6.15132E+01
2.23172E-03 6.10160E+01
2.47969E-03 6.03380E+01
3.09961E-03 5.86390E+01
3.71953E-03 5.69090E+01
4.33945E-03 5.52220E+01
4.95937E-03 5.35150E+01
5.57929E-03 5.17903E+01
5.88926E-03 5.09286E+01
6.19922E-03 5.00830E+01
6.64792E-03 4.88223E+01
7.12910E-03 4.75933E+01
7.43906E-03 4.67930E+01
7.96304E-03 4.54190E+01
8.52392E-03 4.40853E+01
8.67890E-03 4.37165E+01
9.27814E-03 4.22946E+01
9.91875E-03 4.09190E+01
1.05204E-02 3.96387E+01
1.11586E-02 3.83985E+01
1.17622E-02 3.72346E+01
1.23984E-02 3.61060E+01
1.30036E-02 3.50363E+01
1.36383E-02 3.39983E+01
1.42582E-02 3.30011E+01
1.48781E-02 3.20420E+01
1.57806E-02 3.06664E+01
1.67379E-02 2.93498E+01
1.73578E-02 2.85190E+01
1.82640E-02 2.73386E+01
1.92176E-02 2.62071E+01
1.98375E-02 2.55010E+01
2.10408E-02 2.42098E+01
2.23172E-02 2.29840E+01
2.35244E-02 2.19340E+01
2.47969E-02 2.09320E+01
2.63010E-02 1.98984E+01
2.78965E-02 1.89158E+01
2.94463E-02 1.80897E+01
3.09961E-02 1.73590E+01
3.32396E-02 1.64526E+01
3.56455E-02 1.55935E+01
3.71953E-02 1.50970E+01
3.87141E-02 1.46273E+01
4.02949E-02 1.41722E+01
4.26209E-02 1.35023E+01
4.49443E-02 1.28324E+01
4.50162E-02 1.28116E+01
4.66503E-02 1.23333E+01
4.86118E-02 1.17513E+01
4.95937E-02 1.14560E+01
5.11435E-02 1.09881E+01
5.34177E-02 1.03164E+01
5.57929E-02 9.68579E+00
5.79230E-02 9.17986E+00
6.06358E-02 8.63807E+00
6.19922E-02 8.41080E+00
6.50918E-02 7.98606E+00
6.73764E-02 7.70683E+00
6.97412E-02 7.43736E+00
7.20671E-02 7.15031E+00
7.38104E-02 6.91667E+00
7.43906E-02 6.83540E+00
7.59404E-02 6.60758E+00
7.75813E-02 6.35686E+00
8.01094E-02 5.99850E+00
8.27199E-02 5.66035E+00
8.47557E-02 5.43932E+00
8.67890E-02 5.26010E+00
8.83388E-02 5.15336E+00
9.10516E-02 5.01125E+00
9.50325E-02 4.86128E+00
9.91875E-02 4.71580E+00
1.02287E-01 4.59196E+00
1.05000E-01 4.47319E+00
1.09746E-01 4.25379E+00
1.13250E-01 4.08661E+00
1.16865E-01 3.92600E+00
1.17785E-01 3.88500E+00
1.20845E-01 3.75389E+00
1.23984E-01 3.62720E+00
1.30036E-01 3.40092E+00
1.36383E-01 3.18875E+00
1.42582E-01 2.98570E+00
1.47231E-01 2.83427E+00
1.48781E-01 2.78370E+00
1.52513E-01 2.65929E+00
1.58287E-01 2.48303E+00
1.64279E-01 2.31845E+00
1.68929E-01 2.21106E+00
1.73578E-01 2.12300E+00
1.79470E-01 2.04403E+00
1.88686E-01 1.93104E+00
1.98375E-01 1.82430E+00
2.01475E-01 1.78433E+00
2.06772E-01 1.70270E+00
2.11522E-01 1.63434E+00
2.20098E-01 1.52125E+00
2.26757E-01 1.44160E+00
2.31884E-01 1.38461E+00
2.39791E-01 1.30332E+00
2.47969E-01 1.22680E+00
2.55730E-01 1.17497E+00
2.62971E-01 1.13663E+00
2.72989E-01 1.09553E+00
2.82164E-01 1.06684E+00
2.93397E-01 1.03960E+00
3.13639E-01 1.00361E+00
3.35278E-01 9.68871E-01
3.53628E-01 9.37424E-01
3.67366E-01 9.09956E-01
3.71953E-01 8.99930E-01
3.86955E-01 8.63847E-01
4.00593E-01 8.28235E-01
4.18075E-01 7.80771E-01
4.27697E-01 7.53808E-01
4.37541E-01 7.27776E-01
4.52146E-01 6.89019E-01
4.62964E-01 6.60799E-01
4.74042E-01 6.33735E-01
4.84866E-01 6.07708E-01
4.95937E-01 5.82750E-01
5.12906E-01 5.46055E-01
5.30455E-01 5.11670E-01
5.46744E-01 4.81460E-01
5.63534E-01 4.53034E-01
5.73812E-01 4.36223E-01
5.89583E-01 4.12169E-01
6.05787E-01 3.89441E-01
6.25286E-01 3.63553E-01
6.45413E-01 3.39386E-01
6.58773E-01 3.24068E-01
6.79334E-01 3.02378E-01
7.00536E-01 2.82139E-01
7.17200E-01 2.67133E-01
7.34260E-01 2.52926E-01
7.49570E-01 2.40729E-01
7.73136E-01 2.23528E-01
7.97442E-01 2.07556E-01
8.10921E-01 1.99132E-01
8.31567E-01 1.87133E-01
8.52739E-01 1.75857E-01
8.67890E-01 1.68226E-01
8.84360E-01 1.60376E-01
9.01143E-01 1.52892E-01
9.21606E-01 1.44203E-01
9.37257E-01 1.38012E-01
9.61234E-01 1.29221E-01
9.85824E-01 1.20989E-01
1.00133E+00 1.16037E-01
1.02505E+00 1.08987E-01
1.04933E+00 1.02365E-01
1.07237E+00 9.64400E-02
1.08998E+00 9.22225E-02
1.11694E+00 8.62394E-02
1.14457E+00 8.06445E-02
1.16768E+00 7.62285E-02
1.18532E+00 7.30759E-02
1.21227E+00 6.85897E-02
1.23984E+00 6.43790E-02
1.27199E+00 5.97844E-02
1.29665E+00 5.65549E-02
1.31545E+00 5.42479E-02
1.34417E+00 5.09625E-02
1.37352E+00 4.78761E-02
1.40067E+00 4.51872E-02
1.42139E+00 4.32701E-02
1.45303E+00 4.05458E-02
1.48538E+00 3.79931E-02
1.50654E+00 3.64123E-02
1.54431E+00 3.38026E-02
1.57325E+00 3.19688E-02
1.59531E+00 3.06590E-02
1.62899E+00 2.87943E-02
1.66337E+00 2.70430E-02
1.70040E+00 2.52856E-02
1.73348E+00 2.38418E-02
1.76295E+00 2.26463E-02
1.78915E+00 2.16495E-02
1.81239E+00 2.08134E-02
1.85379E+00 1.94271E-02
1.88546E+00 1.84483E-02
1.93398E+00 1.70718E-02
1.98375E+00 1.57980E-02
2.01161E+00 1.51359E-02
2.03808E+00 1.45404E-02
2.08867E+00 1.34863E-02
2.13395E+00 1.26268E-02
2.17438E+00 1.19198E-02
2.21039E+00 1.13338E-02
2.24238E+00 1.08447E-02
2.29949E+00 1.00389E-02
2.34327E+00 9.47418E-03
2.37666E+00 9.07157E-03
2.42762E+00 8.49950E-03
2.47969E+00 7.96350E-03
2.51704E+00 7.60822E-03
2.55258E+00 7.28955E-03
2.58635E+00 7.00293E-03
2.65087E+00 6.49555E-03
2.70865E+00 6.08184E-03
2.76024E+00 5.74152E-03
2.80619E+00 5.45939E-03
2.84702E+00 5.22393E-03
2.91990E+00 4.83604E-03
2.97579E+00 4.56415E-03
3.01840E+00 4.37030E-03
3.08347E+00 4.09487E-03
3.14995E+00 3.83679E-03
3.20858E+00 3.62857E-03
3.26453E+00 3.44363E-03
3.31788E+00 3.27882E-03
3.36868E+00 3.13149E-03
3.41702E+00 2.99938E-03
3.46296E+00 2.88059E-03
3.55077E+00 2.67040E-03
3.62944E+00 2.49910E-03
3.69969E+00 2.35826E-03
3.76228E+00 2.24154E-03
3.81792E+00 2.14417E-03
3.86727E+00 2.06244E-03
3.95518E+00 1.92684E-03
4.02243E+00 1.83103E-03
4.12544E+00 1.69616E-03
4.23109E+00 1.57123E-03
4.29416E+00 1.50300E-03
4.35415E+00 1.44174E-03
4.41114E+00 1.38657E-03
4.52003E+00 1.28875E-03
4.61751E+00 1.20884E-03
4.70453E+00 1.14299E-03
4.78201E+00 1.08833E-03
4.85085E+00 1.04264E-03
4.97373E+00 9.67263E-04
5.06792E+00 9.14325E-04
5.13973E+00 8.76532E-04
5.24936E+00 8.22751E-04
5.36133E+00 7.72270E-04
5.46524E+00 7.29386E-04
5.56448E+00 6.91348E-04
5.65915E+00 6.57490E-04
5.74937E+00 6.27256E-04
5.83526E+00 6.00176E-04
5.91694E+00 5.75851E-04
5.99456E+00 5.53942E-04
6.14284E+00 5.15085E-04
6.27560E+00 4.83328E-04
6.39411E+00 4.57151E-04
6.49965E+00 4.35411E-04
6.59341E+00 4.17239E-04
6.76078E+00 3.87243E-04
6.88908E+00 3.66170E-04
6.98691E+00 3.51122E-04
7.13625E+00 3.29700E-04
7.28879E+00 3.09586E-04
7.40938E+00 2.94943E-04
7.52424E+00 2.81845E-04
7.63354E+00 2.70095E-04
7.73745E+00 2.59524E-04
7.93611E+00 2.40806E-04
8.11412E+00 2.25538E-04
8.27314E+00 2.12976E-04
8.41485E+00 2.02558E-04
8.54083E+00 1.93862E-04
8.76585E+00 1.79533E-04
8.93850E+00 1.69485E-04
9.07021E+00 1.62320E-04
9.27143E+00 1.52137E-04
9.47711E+00 1.42592E-04
9.66933E+00 1.34442E-04
9.85307E+00 1.27225E-04
1.00285E+01 1.20811E-04
1.01958E+01 1.15092E-04
1.03552E+01 1.09977E-04
1.05068E+01 1.05388E-04
1.06511E+01 1.01259E-04
1.09268E+01 9.39501E-05
1.11739E+01 8.79885E-05
1.13948E+01 8.30832E-05
1.15916E+01 7.90160E-05
1.17666E+01 7.56209E-05
1.20792E+01 7.00266E-05
1.23191E+01 6.61042E-05
1.25021E+01 6.33073E-05
1.27818E+01 5.93322E-05
1.30677E+01 5.56067E-05
1.32968E+01 5.28638E-05
1.35152E+01 5.04153E-05
1.37232E+01 4.82230E-05
1.39211E+01 4.62544E-05
1.41093E+01 4.44818E-05
1.44689E+01 4.13393E-05
1.47911E+01 3.87723E-05
1.50789E+01 3.66572E-05
1.53353E+01 3.49014E-05
1.55633E+01 3.34342E-05
1.59704E+01 3.10135E-05
1.62827E+01 2.93136E-05
1.65209E+01 2.81002E-05
1.68847E+01 2.63735E-05
1.72566E+01 2.47530E-05
1.76521E+01 2.31833E-05
1.80311E+01 2.18022E-05
1.83937E+01 2.05822E-05
1.87403E+01 1.95006E-05
1.90712E+01 1.85383E-05
1.93867E+01 1.76792E-05
1.96873E+01 1.69101E-05
1.99733E+01 1.62194E-05
2.02451E+01 1.55976E-05
2.07649E+01 1.44951E-05
2.12307E+01 1.35946E-05
2.16467E+01 1.28527E-05
2.20175E+01 1.22368E-05
2.23471E+01 1.17221E-05
2.29359E+01 1.08730E-05
2.33876E+01 1.02768E-05
2.37322E+01 9.85116E-06
2.42587E+01 9.24557E-06
2.47969E+01 8.67720E-06
2.52579E+01 8.22981E-06
2.56979E+01 7.83135E-06
2.61174E+01 7.47533E-06
2.65169E+01 7.15628E-06
2.68969E+01 6.86954E-06
2.76243E+01 6.36252E-06
2.82768E+01 5.94967E-06
2.88604E+01 5.61047E-06
2.93810E+01 5.32956E-06
2.98441E+01 5.09533E-06
3.02554E+01 4.89884E-06
3.09887E+01 4.57304E-06
3.15504E+01 4.34299E-06
3.19783E+01 4.17807E-06
3.26311E+01 3.94237E-06
3.32972E+01 3.71997E-06
3.38178E+01 3.55884E-06
3.43299E+01 3.40940E-06
3.48333E+01 3.27062E-06
3.53281E+01 3.14157E-06
3.58141E+01 3.02141E-06
3.67748E+01 2.80151E-06
3.76989E+01 2.60992E-06
3.85863E+01 2.44222E-06
3.94373E+01 2.29480E-06
4.02520E+01 2.16469E-06
4.10311E+01 2.04941E-06
4.17753E+01 1.94693E-06
4.24851E+01 1.85550E-06
4.31616E+01 1.77370E-06
4.38055E+01 1.70028E-06
4.44179E+01 1.63422E-06
4.55894E+01 1.51719E-06
4.66397E+01 1.42168E-06
4.75786E+01 1.34306E-06
4.84156E+01 1.27784E-06
4.91601E+01 1.22338E-06
5.04906E+01 1.13359E-06
5.15120E+01 1.07061E-06
5.22916E+01 1.02567E-06
5.34832E+01 9.61785E-07
5.47019E+01 9.01876E-07
5.58135E+01 8.51987E-07
5.69118E+01 8.06291E-07
5.79965E+01 7.64361E-07
5.90669E+01 7.25822E-07
6.01228E+01 6.90341E-07
6.11636E+01 6.57624E-07
6.21892E+01 6.27409E-07
6.31990E+01 5.99462E-07
6.41929E+01 5.73576E-07
6.51707E+01 5.49566E-07
6.61321E+01 5.27265E-07
6.70770E+01 5.06524E-07
6.80053E+01 4.87210E-07
6.98404E+01 4.51859E-07
7.16059E+01 4.21051E-07
7.33015E+01 3.94079E-07
7.49275E+01 3.70364E-07
7.64847E+01 3.49428E-07
7.79740E+01 3.30878E-07
7.93965E+01 3.14382E-07
8.07536E+01 2.99665E-07
8.20470E+01 2.86494E-07
8.32784E+01 2.74672E-07
8.44495E+01 2.64033E-07
8.66901E+01 2.45182E-07
8.86992E+01 2.29796E-07
9.04954E+01 2.17126E-07
9.20969E+01 2.06615E-07
9.35214E+01 1.97836E-07
9.60676E+01 1.83361E-07
9.80225E+01 1.73203E-07
9.95149E+01 1.65957E-07
